motor,pwm,q0_encoder,q1_encoder
1,64,-1000.0000,3925.3333333333
1,64,375.0000,4481.3333333333
1,64,1750.0000,5619.6666666667
1,64,3125.0000,6576.3333333333
1,64,4500.0000,7549.6666666667
1,64,5875.0000,8523.6666666667
1,64,7250.0000,9547.0000000000
1,64,8625.0000,10577.6666666667
1,64,10000.0000,11829.0000000000
1,64,11375.0000,12617.6666666667
1,64,12750.0000,13590.3333333333
1,64,14125.0000,14316.0000000000
1,64,15500.0000,15500.0000000000
1,64,16875.0000,16875.0000000000
1,64,18250.0000,18250.0000000000
1,64,19625.0000,19625.0000000000
1,64,21000.0000,21000.0000000000
1,64,22375.0000,22375.0000000000
1,64,23750.0000,23750.0000000000
1,64,25125.0000,25125.0000000000
1,64,26500.0000,26500.0000000000
1,96,-1000.0000,6279.7500000000
1,96,375.0000,6872.0000000000
1,96,1750.0000,7993.2500000000
1,96,3125.0000,9052.0000000000
1,96,4500.0000,10050.7500000000
1,96,5875.0000,11152.5000000000
1,96,7250.0000,12300.0000000000
1,96,8625.0000,13450.2500000000
1,96,10000.0000,14530.0000000000
1,96,11375.0000,15566.5000000000
1,96,12750.0000,16388.5000000000
1,96,14125.0000,16656.5000000000
1,96,15500.0000,16735.5000000000
1,96,16875.0000,16961.7500000000
1,96,18250.0000,18250.0000000000
1,96,19625.0000,19625.0000000000
1,96,21000.0000,21000.0000000000
1,96,22375.0000,22375.0000000000
1,96,23750.0000,23750.0000000000
1,96,25125.0000,25125.0000000000
1,96,26500.0000,26500.0000000000
1,128,-1000.0000,7999.5000000000
1,128,375.0000,8712.6666666667
1,128,1750.0000,9969.6666666667
1,128,3125.0000,11243.5000000000
1,128,4500.0000,12417.8333333333
1,128,5875.0000,13584.1666666667
1,128,7250.0000,14749.0000000000
1,128,8625.0000,15688.5000000000
1,128,10000.0000,16545.1666666667
1,128,11375.0000,16970.6666666667
1,128,12750.0000,17101.0000000000
1,128,14125.0000,17101.0000000000
1,128,15500.0000,17101.0000000000
1,128,16875.0000,17101.0000000000
1,128,18250.0000,18250.0000000000
1,128,19625.0000,19625.0000000000
1,128,21000.0000,21000.0000000000
1,128,22375.0000,22375.0000000000
1,128,23750.0000,23750.0000000000
1,128,25125.0000,25125.0000000000
1,128,26500.0000,26500.0000000000
1,160,-1000.0000,9023.8000000000
1,160,375.0000,9696.8000000000
1,160,1750.0000,10982.8000000000
1,160,3125.0000,12166.2000000000
1,160,4500.0000,13354.4000000000
1,160,5875.0000,14544.8000000000
1,160,7250.0000,15666.0000000000
1,160,8625.0000,16515.0000000000
1,160,10000.0000,16902.2000000000
1,160,11375.0000,17050.2000000000
1,160,12750.0000,17116.6000000000
1,160,14125.0000,17116.6000000000
1,160,15500.0000,17116.6000000000
1,160,16875.0000,17116.6000000000
1,160,18250.0000,18250.0000000000
1,160,19625.0000,19625.0000000000
1,160,21000.0000,21000.0000000000
1,160,22375.0000,22375.0000000000
1,160,23750.0000,23750.0000000000
1,160,25125.0000,25125.0000000000
1,160,26500.0000,26500.0000000000
1,192,-1000.0000,9863.6666666667
1,192,375.0000,10540.3333333333
1,192,1750.0000,11880.6666666667
1,192,3125.0000,13166.6666666667
1,192,4500.0000,14429.3333333333
1,192,5875.0000,15713.6666666667
1,192,7250.0000,16769.6666666667
1,192,8625.0000,17169.0000000000
1,192,10000.0000,17209.0000000000
1,192,11375.0000,17209.0000000000
1,192,12750.0000,17209.0000000000
1,192,14125.0000,17209.0000000000
1,192,15500.0000,17209.0000000000
1,192,16875.0000,17209.0000000000
1,192,18250.0000,18250.0000000000
1,192,19625.0000,19625.0000000000
1,192,21000.0000,21000.0000000000
1,192,22375.0000,22375.0000000000
1,192,23750.0000,23750.0000000000
1,192,25125.0000,25125.0000000000
1,192,26500.0000,26500.0000000000
1,224,-1000.0000,10436.8333333333
1,224,375.0000,11131.6666666667
1,224,1750.0000,12441.8333333333
1,224,3125.0000,13746.0000000000
1,224,4500.0000,15012.0000000000
1,224,5875.0000,16289.8333333333
1,224,7250.0000,17018.1666666667
1,224,8625.0000,17207.3333333333
1,224,10000.0000,17213.8333333333
1,224,11375.0000,17213.8333333333
1,224,12750.0000,17213.8333333333
1,224,14125.0000,17213.8333333333
1,224,15500.0000,17213.8333333333
1,224,16875.0000,17213.8333333333
1,224,18250.0000,18250.0000000000
1,224,19625.0000,19625.0000000000
1,224,21000.0000,21000.0000000000
1,224,22375.0000,22375.0000000000
1,224,23750.0000,23750.0000000000
1,224,25125.0000,25125.0000000000
1,224,26500.0000,26500.0000000000
1,255,-1000.0000,11176.6666666667
1,255,375.0000,11852.8333333333
1,255,1750.0000,13184.5000000000
1,255,3125.0000,14498.8333333333
1,255,4500.0000,15735.3333333333
1,255,5875.0000,16841.5000000000
1,255,7250.0000,17194.6666666667
1,255,8625.0000,17246.5000000000
1,255,10000.0000,17246.5000000000
1,255,11375.0000,17246.5000000000
1,255,12750.0000,17246.5000000000
1,255,14125.0000,17246.5000000000
1,255,15500.0000,17246.5000000000
1,255,16875.0000,17246.5000000000
1,255,18250.0000,18250.0000000000
1,255,19625.0000,19625.0000000000
1,255,21000.0000,21000.0000000000
1,255,22375.0000,22375.0000000000
1,255,23750.0000,23750.0000000000
1,255,25125.0000,25125.0000000000
1,255,26500.0000,26500.0000000000
1,-64,-1000.0000,-1000.0000000000
1,-64,375.0000,-145.3333333333
1,-64,1750.0000,-145.3333333333
1,-64,3125.0000,362.3333333333
1,-64,4500.0000,822.3333333333
1,-64,5875.0000,1465.6666666667
1,-64,7250.0000,2441.0000000000
1,-64,8625.0000,3851.3333333333
1,-64,10000.0000,5294.3333333333
1,-64,11375.0000,6759.6666666667
1,-64,12750.0000,8203.6666666667
1,-64,14125.0000,9710.3333333333
1,-64,15500.0000,10362.0000000000
1,-64,16875.0000,10362.0000000000
1,-64,18250.0000,10362.0000000000
1,-64,19625.0000,10362.0000000000
1,-64,21000.0000,10362.0000000000
1,-64,22375.0000,10362.0000000000
1,-64,23750.0000,10362.0000000000
1,-64,25125.0000,10362.0000000000
1,-64,26500.0000,10362.0000000000
1,-96,-1000.0000,-1000.0000000000
1,-96,375.0000,-320.0000000000
1,-96,1750.0000,-320.0000000000
1,-96,3125.0000,-320.0000000000
1,-96,4500.0000,-320.0000000000
1,-96,5875.0000,-320.0000000000
1,-96,7250.0000,-148.0000000000
1,-96,8625.0000,704.2500000000
1,-96,10000.0000,2176.2500000000
1,-96,11375.0000,3649.7500000000
1,-96,12750.0000,5117.7500000000
1,-96,14125.0000,6621.0000000000
1,-96,15500.0000,8102.5000000000
1,-96,16875.0000,9800.7500000000
1,-96,18250.0000,9800.7500000000
1,-96,19625.0000,9800.7500000000
1,-96,21000.0000,9800.7500000000
1,-96,22375.0000,9800.7500000000
1,-96,23750.0000,9800.7500000000
1,-96,25125.0000,9800.7500000000
1,-96,26500.0000,9800.7500000000
1,-128,-1000.0000,-1000.0000000000
1,-128,375.0000,-493.0000000000
1,-128,1750.0000,-493.0000000000
1,-128,3125.0000,-493.0000000000
1,-128,4500.0000,-493.0000000000
1,-128,5875.0000,-493.0000000000
1,-128,7250.0000,-491.3333333333
1,-128,8625.0000,-287.1666666667
1,-128,10000.0000,409.6666666667
1,-128,11375.0000,1796.8333333333
1,-128,12750.0000,3268.5000000000
1,-128,14125.0000,4732.6666666667
1,-128,15500.0000,6238.6666666667
1,-128,16875.0000,7831.6666666667
1,-128,18250.0000,8448.8333333333
1,-128,19625.0000,8448.8333333333
1,-128,21000.0000,8448.8333333333
1,-128,22375.0000,8448.8333333333
1,-128,23750.0000,8448.8333333333
1,-128,25125.0000,8448.8333333333
1,-128,26500.0000,8448.8333333333
1,-160,-1000.0000,-1000.0000000000
1,-160,375.0000,-595.8000000000
1,-160,1750.0000,-595.8000000000
1,-160,3125.0000,-595.8000000000
1,-160,4500.0000,-595.8000000000
1,-160,5875.0000,-595.8000000000
1,-160,7250.0000,-595.8000000000
1,-160,8625.0000,-561.2000000000
1,-160,10000.0000,-282.0000000000
1,-160,11375.0000,710.0000000000
1,-160,12750.0000,2163.2000000000
1,-160,14125.0000,3618.4000000000
1,-160,15500.0000,5072.4000000000
1,-160,16875.0000,6626.2000000000
1,-160,18250.0000,7267.2000000000
1,-160,19625.0000,7267.2000000000
1,-160,21000.0000,7267.2000000000
1,-160,22375.0000,7267.2000000000
1,-160,23750.0000,7267.2000000000
1,-160,25125.0000,7267.2000000000
1,-160,26500.0000,7267.2000000000
1,-192,-1000.0000,-1000.0000000000
1,-192,375.0000,-659.2500000000
1,-192,1750.0000,-659.2500000000
1,-192,3125.0000,-659.2500000000
1,-192,4500.0000,-659.2500000000
1,-192,5875.0000,-659.2500000000
1,-192,7250.0000,-659.2500000000
1,-192,8625.0000,-659.2500000000
1,-192,10000.0000,-658.7500000000
1,-192,11375.0000,-274.7500000000
1,-192,12750.0000,1101.7500000000
1,-192,14125.0000,2574.0000000000
1,-192,15500.0000,4082.0000000000
1,-192,16875.0000,5633.7500000000
1,-192,18250.0000,6347.7500000000
1,-192,19625.0000,6347.7500000000
1,-192,21000.0000,6347.7500000000
1,-192,22375.0000,6347.7500000000
1,-192,23750.0000,6347.7500000000
1,-192,25125.0000,6347.7500000000
1,-192,26500.0000,6347.7500000000
1,-224,-1000.0000,-1000.0000000000
1,-224,375.0000,-706.3333333333
1,-224,1750.0000,-706.3333333333
1,-224,3125.0000,-706.3333333333
1,-224,4500.0000,-706.3333333333
1,-224,5875.0000,-706.3333333333
1,-224,7250.0000,-706.3333333333
1,-224,8625.0000,-706.3333333333
1,-224,10000.0000,-706.3333333333
1,-224,11375.0000,-535.6666666667
1,-224,12750.0000,573.6666666667
1,-224,14125.0000,2061.0000000000
1,-224,15500.0000,3546.5000000000
1,-224,16875.0000,5092.0000000000
1,-224,18250.0000,5833.6666666667
1,-224,19625.0000,5833.6666666667
1,-224,21000.0000,5833.6666666667
1,-224,22375.0000,5833.6666666667
1,-224,23750.0000,5833.6666666667
1,-224,25125.0000,5833.6666666667
1,-224,26500.0000,5833.6666666667
1,-255,-1000.0000,-1000.0000000000
1,-255,375.0000,-788.6666666667
1,-255,1750.0000,-788.6666666667
1,-255,3125.0000,-788.6666666667
1,-255,4500.0000,-788.6666666667
1,-255,5875.0000,-788.6666666667
1,-255,7250.0000,-788.6666666667
1,-255,8625.0000,-788.6666666667
1,-255,10000.0000,-788.6666666667
1,-255,11375.0000,-768.8333333333
1,-255,12750.0000,-74.3333333333
1,-255,14125.0000,1331.5000000000
1,-255,15500.0000,2760.5000000000
1,-255,16875.0000,4255.6666666667
1,-255,18250.0000,5034.3333333333
1,-255,19625.0000,5034.3333333333
1,-255,21000.0000,5034.3333333333
1,-255,22375.0000,5034.3333333333
1,-255,23750.0000,5034.3333333333
1,-255,25125.0000,5034.3333333333
1,-255,26500.0000,5034.3333333333
2,64,-1000.0000,1868.3333333333
2,64,-375.0000,1868.3333333333
2,64,250.0000,2076.0000000000
2,64,875.0000,2274.0000000000
2,64,1500.0000,2393.0000000000
2,64,2125.0000,2434.3333333333
2,64,2750.0000,3191.6666666667
2,64,3375.0000,3598.0000000000
2,64,4000.0000,4000.0000000000
2,64,4625.0000,4625.0000000000
2,64,5250.0000,5250.0000000000
2,64,5875.0000,5875.0000000000
2,64,6500.0000,6500.0000000000
2,64,7125.0000,7125.0000000000
2,64,7750.0000,7750.0000000000
2,64,8375.0000,8375.0000000000
2,64,9000.0000,9000.0000000000
2,64,9625.0000,9625.0000000000
2,64,10250.0000,10250.0000000000
2,64,10875.0000,10875.0000000000
2,64,11500.0000,11500.0000000000
2,96,-1000.0000,3618.7500000000
2,96,-375.0000,3618.7500000000
2,96,250.0000,3758.0000000000
2,96,875.0000,3925.0000000000
2,96,1500.0000,4053.7500000000
2,96,2125.0000,4182.2500000000
2,96,2750.0000,4282.2500000000
2,96,3375.0000,4319.5000000000
2,96,4000.0000,4335.2500000000
2,96,4625.0000,5295.7500000000
2,96,5250.0000,5435.7500000000
2,96,5875.0000,5875.0000000000
2,96,6500.0000,6500.0000000000
2,96,7125.0000,7125.0000000000
2,96,7750.0000,7750.0000000000
2,96,8375.0000,8375.0000000000
2,96,9000.0000,9000.0000000000
2,96,9625.0000,9625.0000000000
2,96,10250.0000,10250.0000000000
2,96,10875.0000,10875.0000000000
2,96,11500.0000,11500.0000000000
2,128,-1000.0000,5522.6666666667
2,128,-375.0000,5522.6666666667
2,128,250.0000,5717.6666666667
2,128,875.0000,5876.5000000000
2,128,1500.0000,5937.6666666667
2,128,2125.0000,5991.1666666667
2,128,2750.0000,6023.0000000000
2,128,3375.0000,6034.6666666667
2,128,4000.0000,6036.3333333333
2,128,4625.0000,6048.0000000000
2,128,5250.0000,6073.5000000000
2,128,5875.0000,6085.0000000000
2,128,6500.0000,6500.0000000000
2,128,7125.0000,7125.0000000000
2,128,7750.0000,7750.0000000000
2,128,8375.0000,8375.0000000000
2,128,9000.0000,9000.0000000000
2,128,9625.0000,9625.0000000000
2,128,10250.0000,10250.0000000000
2,128,10875.0000,10875.0000000000
2,128,11500.0000,11500.0000000000
2,160,-1000.0000,6205.6000000000
2,160,-375.0000,6205.6000000000
2,160,250.0000,6258.0000000000
2,160,875.0000,6314.4000000000
2,160,1500.0000,6356.8000000000
2,160,2125.0000,6397.0000000000
2,160,2750.0000,6425.2000000000
2,160,3375.0000,6443.8000000000
2,160,4000.0000,6444.4000000000
2,160,4625.0000,6452.8000000000
2,160,5250.0000,6465.2000000000
2,160,5875.0000,6474.8000000000
2,160,6500.0000,6500.0000000000
2,160,7125.0000,7125.0000000000
2,160,7750.0000,7750.0000000000
2,160,8375.0000,8375.0000000000
2,160,9000.0000,9000.0000000000
2,160,9625.0000,9625.0000000000
2,160,10250.0000,10250.0000000000
2,160,10875.0000,10875.0000000000
2,160,11500.0000,11500.0000000000
2,192,-1000.0000,6521.0000000000
2,192,-375.0000,6521.0000000000
2,192,250.0000,6521.0000000000
2,192,875.0000,6521.0000000000
2,192,1500.0000,6521.0000000000
2,192,2125.0000,6521.0000000000
2,192,2750.0000,6521.0000000000
2,192,3375.0000,6521.0000000000
2,192,4000.0000,6521.0000000000
2,192,4625.0000,6521.0000000000
2,192,5250.0000,6521.0000000000
2,192,5875.0000,6521.0000000000
2,192,6500.0000,6521.0000000000
2,192,7125.0000,7125.0000000000
2,192,7750.0000,7750.0000000000
2,192,8375.0000,8375.0000000000
2,192,9000.0000,9000.0000000000
2,192,9625.0000,9625.0000000000
2,192,10250.0000,10250.0000000000
2,192,10875.0000,10875.0000000000
2,192,11500.0000,11500.0000000000
2,224,-1000.0000,6596.8333333333
2,224,-375.0000,6596.8333333333
2,224,250.0000,6596.8333333333
2,224,875.0000,6596.8333333333
2,224,1500.0000,6596.8333333333
2,224,2125.0000,6596.8333333333
2,224,2750.0000,6596.8333333333
2,224,3375.0000,6596.8333333333
2,224,4000.0000,6596.8333333333
2,224,4625.0000,6596.8333333333
2,224,5250.0000,6596.8333333333
2,224,5875.0000,6596.8333333333
2,224,6500.0000,6596.8333333333
2,224,7125.0000,7125.0000000000
2,224,7750.0000,7750.0000000000
2,224,8375.0000,8375.0000000000
2,224,9000.0000,9000.0000000000
2,224,9625.0000,9625.0000000000
2,224,10250.0000,10250.0000000000
2,224,10875.0000,10875.0000000000
2,224,11500.0000,11500.0000000000
2,255,-1000.0000,6665.1666666667
2,255,-375.0000,6665.1666666667
2,255,250.0000,6665.1666666667
2,255,875.0000,6665.1666666667
2,255,1500.0000,6665.1666666667
2,255,2125.0000,6665.1666666667
2,255,2750.0000,6665.1666666667
2,255,3375.0000,6665.1666666667
2,255,4000.0000,6665.1666666667
2,255,4625.0000,6665.1666666667
2,255,5250.0000,6665.1666666667
2,255,5875.0000,6665.1666666667
2,255,6500.0000,6665.1666666667
2,255,7125.0000,7125.0000000000
2,255,7750.0000,7750.0000000000
2,255,8375.0000,8375.0000000000
2,255,9000.0000,9000.0000000000
2,255,9625.0000,9625.0000000000
2,255,10250.0000,10250.0000000000
2,255,10875.0000,10875.0000000000
2,255,11500.0000,11500.0000000000
2,-64,-1000.0000,-1000.0000000000
2,-64,-375.0000,-375.0000000000
2,-64,250.0000,-15.0000000000
2,-64,875.0000,92.6666666667
2,-64,1500.0000,329.0000000000
2,-64,2125.0000,884.6666666667
2,-64,2750.0000,1316.3333333333
2,-64,3375.0000,1746.3333333333
2,-64,4000.0000,2219.0000000000
2,-64,4625.0000,2410.0000000000
2,-64,5250.0000,2410.0000000000
2,-64,5875.0000,2410.0000000000
2,-64,6500.0000,2410.0000000000
2,-64,7125.0000,2410.0000000000
2,-64,7750.0000,2410.0000000000
2,-64,8375.0000,2410.0000000000
2,-64,9000.0000,2410.0000000000
2,-64,9625.0000,2410.0000000000
2,-64,10250.0000,2410.0000000000
2,-64,10875.0000,2410.0000000000
2,-64,11500.0000,2410.0000000000
2,-96,-1000.0000,-1000.0000000000
2,-96,-375.0000,-375.0000000000
2,-96,250.0000,-123.5000000000
2,-96,875.0000,-123.5000000000
2,-96,1500.0000,-123.5000000000
2,-96,2125.0000,-123.5000000000
2,-96,2750.0000,-123.5000000000
2,-96,3375.0000,-123.5000000000
2,-96,4000.0000,-123.5000000000
2,-96,4625.0000,-59.5000000000
2,-96,5250.0000,219.5000000000
2,-96,5875.0000,459.5000000000
2,-96,6500.0000,459.5000000000
2,-96,7125.0000,459.5000000000
2,-96,7750.0000,459.5000000000
2,-96,8375.0000,459.5000000000
2,-96,9000.0000,459.5000000000
2,-96,9625.0000,459.5000000000
2,-96,10250.0000,459.5000000000
2,-96,10875.0000,459.5000000000
2,-96,11500.0000,459.5000000000
2,-128,-1000.0000,-1000.0000000000
2,-128,-375.0000,-375.0000000000
2,-128,250.0000,-223.5000000000
2,-128,875.0000,-223.5000000000
2,-128,1500.0000,-223.5000000000
2,-128,2125.0000,-223.5000000000
2,-128,2750.0000,-223.5000000000
2,-128,3375.0000,-223.5000000000
2,-128,4000.0000,-223.5000000000
2,-128,4625.0000,-223.5000000000
2,-128,5250.0000,-223.5000000000
2,-128,5875.0000,-210.0000000000
2,-128,6500.0000,-104.0000000000
2,-128,7125.0000,-104.0000000000
2,-128,7750.0000,-104.0000000000
2,-128,8375.0000,-104.0000000000
2,-128,9000.0000,-104.0000000000
2,-128,9625.0000,-104.0000000000
2,-128,10250.0000,-104.0000000000
2,-128,10875.0000,-104.0000000000
2,-128,11500.0000,-104.0000000000
2,-160,-1000.0000,-1000.0000000000
2,-160,-375.0000,-375.0000000000
2,-160,250.0000,-300.4000000000
2,-160,875.0000,-300.4000000000
2,-160,1500.0000,-300.4000000000
2,-160,2125.0000,-300.4000000000
2,-160,2750.0000,-300.4000000000
2,-160,3375.0000,-300.4000000000
2,-160,4000.0000,-300.4000000000
2,-160,4625.0000,-300.4000000000
2,-160,5250.0000,-300.4000000000
2,-160,5875.0000,-300.4000000000
2,-160,6500.0000,-300.4000000000
2,-160,7125.0000,-300.4000000000
2,-160,7750.0000,-300.4000000000
2,-160,8375.0000,-300.4000000000
2,-160,9000.0000,-300.4000000000
2,-160,9625.0000,-300.4000000000
2,-160,10250.0000,-300.4000000000
2,-160,10875.0000,-300.4000000000
2,-160,11500.0000,-300.4000000000
2,-192,-1000.0000,-1000.0000000000
2,-192,-375.0000,-375.0000000000
2,-192,250.0000,-363.7500000000
2,-192,875.0000,-363.7500000000
2,-192,1500.0000,-363.7500000000
2,-192,2125.0000,-363.7500000000
2,-192,2750.0000,-363.7500000000
2,-192,3375.0000,-363.7500000000
2,-192,4000.0000,-363.7500000000
2,-192,4625.0000,-363.7500000000
2,-192,5250.0000,-363.7500000000
2,-192,5875.0000,-363.7500000000
2,-192,6500.0000,-363.7500000000
2,-192,7125.0000,-363.7500000000
2,-192,7750.0000,-363.7500000000
2,-192,8375.0000,-363.7500000000
2,-192,9000.0000,-363.7500000000
2,-192,9625.0000,-363.7500000000
2,-192,10250.0000,-363.7500000000
2,-192,10875.0000,-363.7500000000
2,-192,11500.0000,-363.7500000000
2,-224,-1000.0000,-1000.0000000000
2,-224,-375.0000,-394.0000000000
2,-224,250.0000,-394.0000000000
2,-224,875.0000,-394.0000000000
2,-224,1500.0000,-394.0000000000
2,-224,2125.0000,-394.0000000000
2,-224,2750.0000,-394.0000000000
2,-224,3375.0000,-394.0000000000
2,-224,4000.0000,-394.0000000000
2,-224,4625.0000,-394.0000000000
2,-224,5250.0000,-394.0000000000
2,-224,5875.0000,-394.0000000000
2,-224,6500.0000,-394.0000000000
2,-224,7125.0000,-394.0000000000
2,-224,7750.0000,-394.0000000000
2,-224,8375.0000,-394.0000000000
2,-224,9000.0000,-394.0000000000
2,-224,9625.0000,-394.0000000000
2,-224,10250.0000,-394.0000000000
2,-224,10875.0000,-394.0000000000
2,-224,11500.0000,-394.0000000000
2,-255,-1000.0000,-1000.0000000000
2,-255,-375.0000,-437.3333333333
2,-255,250.0000,-437.3333333333
2,-255,875.0000,-437.3333333333
2,-255,1500.0000,-437.3333333333
2,-255,2125.0000,-437.3333333333
2,-255,2750.0000,-437.3333333333
2,-255,3375.0000,-437.3333333333
2,-255,4000.0000,-437.3333333333
2,-255,4625.0000,-437.3333333333
2,-255,5250.0000,-437.3333333333
2,-255,5875.0000,-437.3333333333
2,-255,6500.0000,-437.3333333333
2,-255,7125.0000,-437.3333333333
2,-255,7750.0000,-437.3333333333
2,-255,8375.0000,-437.3333333333
2,-255,9000.0000,-437.3333333333
2,-255,9625.0000,-437.3333333333
2,-255,10250.0000,-437.3333333333
2,-255,10875.0000,-437.3333333333
2,-255,11500.0000,-437.3333333333
3,64,-1000.0000,3181.6666666667
3,64,-525.0000,3181.6666666667
3,64,-50.0000,3181.6666666667
3,64,425.0000,3640.6666666667
3,64,900.0000,3849.6666666667
3,64,1375.0000,3990.6666666667
3,64,1850.0000,4104.3333333333
3,64,2325.0000,4149.3333333333
3,64,2800.0000,4157.3333333333
3,64,3275.0000,4160.0000000000
3,64,3750.0000,4161.3333333333
3,64,4225.0000,4235.6666666667
3,64,4700.0000,4700.0000000000
3,64,5175.0000,5175.0000000000
3,64,5650.0000,5650.0000000000
3,64,6125.0000,6125.0000000000
3,64,6600.0000,6600.0000000000
3,64,7075.0000,7075.0000000000
3,64,7550.0000,7550.0000000000
3,64,8025.0000,8025.0000000000
3,64,8500.0000,8500.0000000000
3,96,-1000.0000,3427.7500000000
3,96,-525.0000,3427.7500000000
3,96,-50.0000,3427.7500000000
3,96,425.0000,3494.5000000000
3,96,900.0000,3519.0000000000
3,96,1375.0000,3547.0000000000
3,96,1850.0000,3578.0000000000
3,96,2325.0000,3635.7500000000
3,96,2800.0000,3692.5000000000
3,96,3275.0000,3713.5000000000
3,96,3750.0000,3901.7500000000
3,96,4225.0000,4574.2500000000
3,96,4700.0000,4944.5000000000
3,96,5175.0000,5175.0000000000
3,96,5650.0000,5650.0000000000
3,96,6125.0000,6125.0000000000
3,96,6600.0000,6600.0000000000
3,96,7075.0000,7075.0000000000
3,96,7550.0000,7550.0000000000
3,96,8025.0000,8025.0000000000
3,96,8500.0000,8500.0000000000
3,128,-1000.0000,6414.8333333333
3,128,-525.0000,6414.8333333333
3,128,-50.0000,6414.8333333333
3,128,425.0000,6837.8333333333
3,128,900.0000,6991.0000000000
3,128,1375.0000,7075.8333333333
3,128,1850.0000,7151.8333333333
3,128,2325.0000,7207.3333333333
3,128,2800.0000,7228.3333333333
3,128,3275.0000,7248.1666666667
3,128,3750.0000,7267.3333333333
3,128,4225.0000,7287.8333333333
3,128,4700.0000,7314.8333333333
3,128,5175.0000,7320.8333333333
3,128,5650.0000,7321.3333333333
3,128,6125.0000,7322.8333333333
3,128,6600.0000,7329.0000000000
3,128,7075.0000,7334.6666666667
3,128,7550.0000,7550.0000000000
3,128,8025.0000,8025.0000000000
3,128,8500.0000,8500.0000000000
3,160,-1000.0000,7464.4000000000
3,160,-525.0000,7464.4000000000
3,160,-50.0000,7464.4000000000
3,160,425.0000,7512.4000000000
3,160,900.0000,7538.0000000000
3,160,1375.0000,7560.0000000000
3,160,1850.0000,7578.8000000000
3,160,2325.0000,7596.0000000000
3,160,2800.0000,7607.6000000000
3,160,3275.0000,7615.8000000000
3,160,3750.0000,7618.0000000000
3,160,4225.0000,7618.0000000000
3,160,4700.0000,7618.0000000000
3,160,5175.0000,7618.2000000000
3,160,5650.0000,7621.0000000000
3,160,6125.0000,7629.8000000000
3,160,6600.0000,7639.4000000000
3,160,7075.0000,7642.6000000000
3,160,7550.0000,7657.6000000000
3,160,8025.0000,8025.0000000000
3,160,8500.0000,8500.0000000000
3,192,-1000.0000,7510.0000000000
3,192,-525.0000,7510.0000000000
3,192,-50.0000,7510.0000000000
3,192,425.0000,7624.6666666667
3,192,900.0000,7647.0000000000
3,192,1375.0000,7647.0000000000
3,192,1850.0000,7647.0000000000
3,192,2325.0000,7647.0000000000
3,192,2800.0000,7647.0000000000
3,192,3275.0000,7647.0000000000
3,192,3750.0000,7647.0000000000
3,192,4225.0000,7647.0000000000
3,192,4700.0000,7647.0000000000
3,192,5175.0000,7647.0000000000
3,192,5650.0000,7647.0000000000
3,192,6125.0000,7647.0000000000
3,192,6600.0000,7647.0000000000
3,192,7075.0000,7647.0000000000
3,192,7550.0000,7647.0000000000
3,192,8025.0000,8025.0000000000
3,192,8500.0000,8500.0000000000
3,224,-1000.0000,7523.6666666667
3,224,-525.0000,7523.6666666667
3,224,-50.0000,7523.6666666667
3,224,425.0000,7565.8333333333
3,224,900.0000,7554.5000000000
3,224,1375.0000,7539.3333333333
3,224,1850.0000,7523.6666666667
3,224,2325.0000,7515.6666666667
3,224,2800.0000,7513.6666666667
3,224,3275.0000,7513.6666666667
3,224,3750.0000,7513.6666666667
3,224,4225.0000,7513.6666666667
3,224,4700.0000,7513.6666666667
3,224,5175.0000,7513.6666666667
3,224,5650.0000,7513.6666666667
3,224,6125.0000,7513.6666666667
3,224,6600.0000,7513.6666666667
3,224,7075.0000,7513.6666666667
3,224,7550.0000,7513.6666666667
3,224,8025.0000,8025.0000000000
3,224,8500.0000,8500.0000000000
3,255,-1000.0000,7509.6666666667
3,255,-525.0000,7509.6666666667
3,255,-50.0000,7509.6666666667
3,255,425.0000,7552.3333333333
3,255,900.0000,7569.3333333333
3,255,1375.0000,7581.1666666667
3,255,1850.0000,7590.8333333333
3,255,2325.0000,7599.5000000000
3,255,2800.0000,7602.5000000000
3,255,3275.0000,7602.5000000000
3,255,3750.0000,7602.5000000000
3,255,4225.0000,7602.5000000000
3,255,4700.0000,7602.5000000000
3,255,5175.0000,7602.5000000000
3,255,5650.0000,7602.5000000000
3,255,6125.0000,7602.5000000000
3,255,6600.0000,7602.5000000000
3,255,7075.0000,7602.5000000000
3,255,7550.0000,7602.1666666667
3,255,8025.0000,8025.0000000000
3,255,8500.0000,8500.0000000000
3,-64,-1000.0000,-1000.0000000000
3,-64,-525.0000,-525.0000000000
3,-64,-50.0000,-50.0000000000
3,-64,425.0000,-16.3333333333
3,-64,900.0000,-15.0000000000
3,-64,1375.0000,-14.6666666667
3,-64,1850.0000,-14.3333333333
3,-64,2325.0000,-14.3333333333
3,-64,2800.0000,-14.3333333333
3,-64,3275.0000,4.6666666667
3,-64,3750.0000,255.3333333333
3,-64,4225.0000,576.0000000000
3,-64,4700.0000,940.3333333333
3,-64,5175.0000,1404.3333333333
3,-64,5650.0000,1541.6666666667
3,-64,6125.0000,1541.6666666667
3,-64,6600.0000,1541.6666666667
3,-64,7075.0000,1541.6666666667
3,-64,7550.0000,1541.6666666667
3,-64,8025.0000,1541.6666666667
3,-64,8500.0000,1541.6666666667
3,-96,-1000.0000,-1000.0000000000
3,-96,-525.0000,-525.0000000000
3,-96,-50.0000,-266.0000000000
3,-96,425.0000,-266.0000000000
3,-96,900.0000,-266.0000000000
3,-96,1375.0000,-266.0000000000
3,-96,1850.0000,-266.0000000000
3,-96,2325.0000,-266.0000000000
3,-96,2800.0000,-266.0000000000
3,-96,3275.0000,-266.0000000000
3,-96,3750.0000,-266.0000000000
3,-96,4225.0000,-266.0000000000
3,-96,4700.0000,-266.0000000000
3,-96,5175.0000,-266.0000000000
3,-96,5650.0000,-266.0000000000
3,-96,6125.0000,-238.2500000000
3,-96,6600.0000,-238.2500000000
3,-96,7075.0000,-238.2500000000
3,-96,7550.0000,-238.2500000000
3,-96,8025.0000,-238.2500000000
3,-96,8500.0000,-238.2500000000
3,-128,-1000.0000,-1000.0000000000
3,-128,-525.0000,-525.0000000000
3,-128,-50.0000,-453.5000000000
3,-128,425.0000,-453.5000000000
3,-128,900.0000,-453.5000000000
3,-128,1375.0000,-453.5000000000
3,-128,1850.0000,-453.5000000000
3,-128,2325.0000,-453.5000000000
3,-128,2800.0000,-453.5000000000
3,-128,3275.0000,-453.5000000000
3,-128,3750.0000,-453.5000000000
3,-128,4225.0000,-453.5000000000
3,-128,4700.0000,-453.5000000000
3,-128,5175.0000,-453.5000000000
3,-128,5650.0000,-453.5000000000
3,-128,6125.0000,-453.5000000000
3,-128,6600.0000,-442.5000000000
3,-128,7075.0000,-349.1666666667
3,-128,7550.0000,-73.5000000000
3,-128,8025.0000,-73.5000000000
3,-128,8500.0000,-73.5000000000
3,-160,-1000.0000,-1000.0000000000
3,-160,-525.0000,-525.0000000000
3,-160,-50.0000,-461.0000000000
3,-160,425.0000,-461.0000000000
3,-160,900.0000,-461.0000000000
3,-160,1375.0000,-461.0000000000
3,-160,1850.0000,-461.0000000000
3,-160,2325.0000,-461.0000000000
3,-160,2800.0000,-461.0000000000
3,-160,3275.0000,-461.0000000000
3,-160,3750.0000,-461.0000000000
3,-160,4225.0000,-461.0000000000
3,-160,4700.0000,-461.0000000000
3,-160,5175.0000,-461.0000000000
3,-160,5650.0000,-461.0000000000
3,-160,6125.0000,-461.0000000000
3,-160,6600.0000,-461.0000000000
3,-160,7075.0000,-461.0000000000
3,-160,7550.0000,-461.0000000000
3,-160,8025.0000,-453.2000000000
3,-160,8500.0000,-453.2000000000
3,-192,-1000.0000,-1000.0000000000
3,-192,-525.0000,-525.0000000000
3,-192,-50.0000,-442.2500000000
3,-192,425.0000,-442.2500000000
3,-192,900.0000,-442.2500000000
3,-192,1375.0000,-442.2500000000
3,-192,1850.0000,-442.2500000000
3,-192,2325.0000,-442.2500000000
3,-192,2800.0000,-442.2500000000
3,-192,3275.0000,-442.2500000000
3,-192,3750.0000,-442.2500000000
3,-192,4225.0000,-442.2500000000
3,-192,4700.0000,-442.2500000000
3,-192,5175.0000,-442.2500000000
3,-192,5650.0000,-442.2500000000
3,-192,6125.0000,-442.2500000000
3,-192,6600.0000,-442.2500000000
3,-192,7075.0000,-442.2500000000
3,-192,7550.0000,-442.2500000000
3,-192,8025.0000,-442.2500000000
3,-192,8500.0000,-442.2500000000
3,-224,-1000.0000,-1000.0000000000
3,-224,-525.0000,-558.1666666667
3,-224,-50.0000,-558.1666666667
3,-224,425.0000,-558.1666666667
3,-224,900.0000,-558.1666666667
3,-224,1375.0000,-558.1666666667
3,-224,1850.0000,-558.1666666667
3,-224,2325.0000,-558.1666666667
3,-224,2800.0000,-558.1666666667
3,-224,3275.0000,-558.1666666667
3,-224,3750.0000,-558.1666666667
3,-224,4225.0000,-558.1666666667
3,-224,4700.0000,-558.1666666667
3,-224,5175.0000,-558.1666666667
3,-224,5650.0000,-558.1666666667
3,-224,6125.0000,-558.1666666667
3,-224,6600.0000,-558.1666666667
3,-224,7075.0000,-558.1666666667
3,-224,7550.0000,-558.1666666667
3,-224,8025.0000,-558.1666666667
3,-224,8500.0000,-558.1666666667
3,-255,-1000.0000,-1000.0000000000
3,-255,-525.0000,-681.3333333333
3,-255,-50.0000,-681.3333333333
3,-255,425.0000,-681.3333333333
3,-255,900.0000,-681.3333333333
3,-255,1375.0000,-681.3333333333
3,-255,1850.0000,-681.3333333333
3,-255,2325.0000,-681.3333333333
3,-255,2800.0000,-681.3333333333
3,-255,3275.0000,-681.3333333333
3,-255,3750.0000,-681.3333333333
3,-255,4225.0000,-681.3333333333
3,-255,4700.0000,-681.3333333333
3,-255,5175.0000,-681.3333333333
3,-255,5650.0000,-681.3333333333
3,-255,6125.0000,-681.3333333333
3,-255,6600.0000,-681.3333333333
3,-255,7075.0000,-681.3333333333
3,-255,7550.0000,-681.3333333333
3,-255,8025.0000,-681.3333333333
3,-255,8500.0000,-681.3333333333
4,64,-1000.0000,3117.3333333333
4,64,-500.0000,3117.3333333333
4,64,0.0000,3117.3333333333
4,64,500.0000,3518.6666666667
4,64,1000.0000,3758.0000000000
4,64,1500.0000,3936.3333333333
4,64,2000.0000,4100.3333333333
4,64,2500.0000,4312.6666666667
4,64,3000.0000,4632.3333333333
4,64,3500.0000,4965.0000000000
4,64,4000.0000,5279.0000000000
4,64,4500.0000,5669.6666666667
4,64,5000.0000,5722.0000000000
4,64,5500.0000,5723.0000000000
4,64,6000.0000,6024.3333333333
4,64,6500.0000,6500.0000000000
4,64,7000.0000,7000.0000000000
4,64,7500.0000,7500.0000000000
4,64,8000.0000,8000.0000000000
4,64,8500.0000,8500.0000000000
4,64,9000.0000,9000.0000000000
4,96,-1000.0000,4761.5000000000
4,96,-500.0000,4761.5000000000
4,96,0.0000,4761.5000000000
4,96,500.0000,5338.7500000000
4,96,1000.0000,5660.7500000000
4,96,1500.0000,5906.7500000000
4,96,2000.0000,6049.7500000000
4,96,2500.0000,6049.7500000000
4,96,3000.0000,6049.7500000000
4,96,3500.0000,6049.7500000000
4,96,4000.0000,6049.7500000000
4,96,4500.0000,6049.7500000000
4,96,5000.0000,6049.7500000000
4,96,5500.0000,6049.7500000000
4,96,6000.0000,6049.7500000000
4,96,6500.0000,6500.0000000000
4,96,7000.0000,7000.0000000000
4,96,7500.0000,7500.0000000000
4,96,8000.0000,8000.0000000000
4,96,8500.0000,8500.0000000000
4,96,9000.0000,9000.0000000000
4,128,-1000.0000,6146.3333333333
4,128,-500.0000,6146.3333333333
4,128,0.0000,6146.3333333333
4,128,500.0000,6146.3333333333
4,128,1000.0000,6146.3333333333
4,128,1500.0000,6146.3333333333
4,128,2000.0000,6146.3333333333
4,128,2500.0000,6146.3333333333
4,128,3000.0000,6146.3333333333
4,128,3500.0000,6146.3333333333
4,128,4000.0000,6146.3333333333
4,128,4500.0000,6146.3333333333
4,128,5000.0000,6146.3333333333
4,128,5500.0000,6146.3333333333
4,128,6000.0000,6146.3333333333
4,128,6500.0000,6500.0000000000
4,128,7000.0000,7000.0000000000
4,128,7500.0000,7500.0000000000
4,128,8000.0000,8000.0000000000
4,128,8500.0000,8500.0000000000
4,128,9000.0000,9000.0000000000
4,160,-1000.0000,6186.2000000000
4,160,-500.0000,6186.2000000000
4,160,0.0000,6186.2000000000
4,160,500.0000,6186.2000000000
4,160,1000.0000,6186.2000000000
4,160,1500.0000,6186.2000000000
4,160,2000.0000,6186.2000000000
4,160,2500.0000,6186.2000000000
4,160,3000.0000,6186.2000000000
4,160,3500.0000,6186.2000000000
4,160,4000.0000,6186.2000000000
4,160,4500.0000,6186.2000000000
4,160,5000.0000,6186.2000000000
4,160,5500.0000,6186.2000000000
4,160,6000.0000,6186.2000000000
4,160,6500.0000,6500.0000000000
4,160,7000.0000,7000.0000000000
4,160,7500.0000,7500.0000000000
4,160,8000.0000,8000.0000000000
4,160,8500.0000,8500.0000000000
4,160,9000.0000,9000.0000000000
4,192,-1000.0000,6217.3333333333
4,192,-500.0000,6217.3333333333
4,192,0.0000,6217.3333333333
4,192,500.0000,6217.3333333333
4,192,1000.0000,6217.3333333333
4,192,1500.0000,6217.3333333333
4,192,2000.0000,6217.3333333333
4,192,2500.0000,6217.3333333333
4,192,3000.0000,6217.3333333333
4,192,3500.0000,6217.3333333333
4,192,4000.0000,6217.3333333333
4,192,4500.0000,6217.3333333333
4,192,5000.0000,6217.3333333333
4,192,5500.0000,6217.3333333333
4,192,6000.0000,6217.3333333333
4,192,6500.0000,6500.0000000000
4,192,7000.0000,7000.0000000000
4,192,7500.0000,7500.0000000000
4,192,8000.0000,8000.0000000000
4,192,8500.0000,8500.0000000000
4,192,9000.0000,9000.0000000000
4,224,-1000.0000,6277.6666666667
4,224,-500.0000,6277.6666666667
4,224,0.0000,6277.6666666667
4,224,500.0000,6277.6666666667
4,224,1000.0000,6277.6666666667
4,224,1500.0000,6277.6666666667
4,224,2000.0000,6277.6666666667
4,224,2500.0000,6277.6666666667
4,224,3000.0000,6277.6666666667
4,224,3500.0000,6277.6666666667
4,224,4000.0000,6277.6666666667
4,224,4500.0000,6277.6666666667
4,224,5000.0000,6277.6666666667
4,224,5500.0000,6277.6666666667
4,224,6000.0000,6277.6666666667
4,224,6500.0000,6500.0000000000
4,224,7000.0000,7000.0000000000
4,224,7500.0000,7500.0000000000
4,224,8000.0000,8000.0000000000
4,224,8500.0000,8500.0000000000
4,224,9000.0000,9000.0000000000
4,255,-1000.0000,6280.8333333333
4,255,-500.0000,6280.8333333333
4,255,0.0000,6280.8333333333
4,255,500.0000,6280.8333333333
4,255,1000.0000,6280.8333333333
4,255,1500.0000,6280.8333333333
4,255,2000.0000,6280.8333333333
4,255,2500.0000,6280.8333333333
4,255,3000.0000,6280.8333333333
4,255,3500.0000,6280.8333333333
4,255,4000.0000,6280.8333333333
4,255,4500.0000,6280.8333333333
4,255,5000.0000,6280.8333333333
4,255,5500.0000,6280.8333333333
4,255,6000.0000,6280.8333333333
4,255,6500.0000,6500.0000000000
4,255,7000.0000,7000.0000000000
4,255,7500.0000,7500.0000000000
4,255,8000.0000,8000.0000000000
4,255,8500.0000,8500.0000000000
4,255,9000.0000,9000.0000000000
4,-64,-1000.0000,-1000.0000000000
4,-64,-500.0000,-500.0000000000
4,-64,0.0000,-65.6666666667
4,-64,500.0000,-65.6666666667
4,-64,1000.0000,-65.6666666667
4,-64,1500.0000,-65.6666666667
4,-64,2000.0000,-65.6666666667
4,-64,2500.0000,26.6666666667
4,-64,3000.0000,187.3333333333
4,-64,3500.0000,337.3333333333
4,-64,4000.0000,602.0000000000
4,-64,4500.0000,1025.0000000000
4,-64,5000.0000,1560.0000000000
4,-64,5500.0000,2127.0000000000
4,-64,6000.0000,2808.3333333333
4,-64,6500.0000,2976.3333333333
4,-64,7000.0000,2976.3333333333
4,-64,7500.0000,2976.3333333333
4,-64,8000.0000,2976.3333333333
4,-64,8500.0000,2976.3333333333
4,-64,9000.0000,2976.3333333333
4,-96,-1000.0000,-1000.0000000000
4,-96,-500.0000,-500.0000000000
4,-96,0.0000,-131.5000000000
4,-96,500.0000,-131.5000000000
4,-96,1000.0000,-131.5000000000
4,-96,1500.0000,-131.5000000000
4,-96,2000.0000,-131.5000000000
4,-96,2500.0000,-131.5000000000
4,-96,3000.0000,-131.5000000000
4,-96,3500.0000,-131.5000000000
4,-96,4000.0000,-131.5000000000
4,-96,4500.0000,-131.5000000000
4,-96,5000.0000,-131.5000000000
4,-96,5500.0000,-52.5000000000
4,-96,6000.0000,722.0000000000
4,-96,6500.0000,958.5000000000
4,-96,7000.0000,958.5000000000
4,-96,7500.0000,958.5000000000
4,-96,8000.0000,958.5000000000
4,-96,8500.0000,958.5000000000
4,-96,9000.0000,958.5000000000
4,-128,-1000.0000,-1000.0000000000
4,-128,-500.0000,-500.0000000000
4,-128,0.0000,-291.0000000000
4,-128,500.0000,-291.0000000000
4,-128,1000.0000,-291.0000000000
4,-128,1500.0000,-291.0000000000
4,-128,2000.0000,-291.0000000000
4,-128,2500.0000,-291.0000000000
4,-128,3000.0000,-291.0000000000
4,-128,3500.0000,-291.0000000000
4,-128,4000.0000,-291.0000000000
4,-128,4500.0000,-291.0000000000
4,-128,5000.0000,-291.0000000000
4,-128,5500.0000,-291.0000000000
4,-128,6000.0000,-291.0000000000
4,-128,6500.0000,-291.0000000000
4,-128,7000.0000,-291.0000000000
4,-128,7500.0000,-291.0000000000
4,-128,8000.0000,-291.0000000000
4,-128,8500.0000,-291.0000000000
4,-128,9000.0000,-291.0000000000
4,-160,-1000.0000,-1000.0000000000
4,-160,-500.0000,-500.0000000000
4,-160,0.0000,-409.2000000000
4,-160,500.0000,-409.2000000000
4,-160,1000.0000,-409.2000000000
4,-160,1500.0000,-409.2000000000
4,-160,2000.0000,-409.2000000000
4,-160,2500.0000,-409.2000000000
4,-160,3000.0000,-409.2000000000
4,-160,3500.0000,-409.2000000000
4,-160,4000.0000,-409.2000000000
4,-160,4500.0000,-409.2000000000
4,-160,5000.0000,-409.2000000000
4,-160,5500.0000,-409.2000000000
4,-160,6000.0000,-409.2000000000
4,-160,6500.0000,-409.2000000000
4,-160,7000.0000,-409.2000000000
4,-160,7500.0000,-409.2000000000
4,-160,8000.0000,-409.2000000000
4,-160,8500.0000,-409.2000000000
4,-160,9000.0000,-409.2000000000
4,-192,-1000.0000,-1000.0000000000
4,-192,-500.0000,-500.0000000000
4,-192,0.0000,-468.5000000000
4,-192,500.0000,-468.5000000000
4,-192,1000.0000,-468.5000000000
4,-192,1500.0000,-468.5000000000
4,-192,2000.0000,-468.5000000000
4,-192,2500.0000,-468.5000000000
4,-192,3000.0000,-468.5000000000
4,-192,3500.0000,-468.5000000000
4,-192,4000.0000,-468.5000000000
4,-192,4500.0000,-468.5000000000
4,-192,5000.0000,-468.5000000000
4,-192,5500.0000,-468.5000000000
4,-192,6000.0000,-468.5000000000
4,-192,6500.0000,-468.5000000000
4,-192,7000.0000,-468.5000000000
4,-192,7500.0000,-468.5000000000
4,-192,8000.0000,-468.5000000000
4,-192,8500.0000,-468.5000000000
4,-192,9000.0000,-468.5000000000
4,-224,-1000.0000,-1000.0000000000
4,-224,-500.0000,-500.0000000000
4,-224,0.0000,-490.0000000000
4,-224,500.0000,-490.0000000000
4,-224,1000.0000,-490.0000000000
4,-224,1500.0000,-490.0000000000
4,-224,2000.0000,-490.0000000000
4,-224,2500.0000,-490.0000000000
4,-224,3000.0000,-490.0000000000
4,-224,3500.0000,-490.0000000000
4,-224,4000.0000,-490.0000000000
4,-224,4500.0000,-490.0000000000
4,-224,5000.0000,-490.0000000000
4,-224,5500.0000,-490.0000000000
4,-224,6000.0000,-490.0000000000
4,-224,6500.0000,-490.0000000000
4,-224,7000.0000,-490.0000000000
4,-224,7500.0000,-490.0000000000
4,-224,8000.0000,-490.0000000000
4,-224,8500.0000,-490.0000000000
4,-224,9000.0000,-490.0000000000
4,-255,-1000.0000,-1000.0000000000
4,-255,-500.0000,-562.1666666667
4,-255,0.0000,-562.1666666667
4,-255,500.0000,-562.1666666667
4,-255,1000.0000,-562.1666666667
4,-255,1500.0000,-562.1666666667
4,-255,2000.0000,-562.1666666667
4,-255,2500.0000,-562.1666666667
4,-255,3000.0000,-562.1666666667
4,-255,3500.0000,-562.1666666667
4,-255,4000.0000,-562.1666666667
4,-255,4500.0000,-562.1666666667
4,-255,5000.0000,-562.1666666667
4,-255,5500.0000,-562.1666666667
4,-255,6000.0000,-562.1666666667
4,-255,6500.0000,-562.1666666667
4,-255,7000.0000,-562.1666666667
4,-255,7500.0000,-562.1666666667
4,-255,8000.0000,-562.1666666667
4,-255,8500.0000,-562.1666666667
4,-255,9000.0000,-562.1666666667
